[S] 	 v
0.000 	 0.000000
0.010 	 0.020000
0.020 	 0.033333
0.030 	 0.042857
0.040 	 0.050000
0.050 	 0.055556
0.060 	 0.060000
0.070 	 0.063636
0.080 	 0.066667
0.090 	 0.069231
0.100 	 0.071429
0.110 	 0.073333
0.120 	 0.075000
0.130 	 0.076471
0.140 	 0.077778
0.150 	 0.078947
0.160 	 0.080000
0.170 	 0.080952
0.180 	 0.081818
0.190 	 0.082609
